# E_nat/L= -0.210 K2/L= 0.0287 SC/L= 0.050 Tfreeze= 0.757
# Temp. DeltaG/L (REM2)
0.1 -0.13357
0.2 -0.12857
0.3 -0.12357
0.4 -0.11857
0.5 -0.11357
0.6 -0.10857
0.7 -0.10357
0.8 -0.09846
0.9 -0.09244
1.0 -0.08563
1.1 -0.07824
1.2 -0.07041
1.3 -0.06225
1.4 -0.05382
1.5 -0.04519
1.6 -0.03638
1.7 -0.02744
1.8 -0.01838
1.9 -0.00921
2.0 0.00003
2.1 0.00935
2.2 0.01873
2.3 0.02816
2.4 0.03764
2.5 0.04716
2.6 0.05672
2.7 0.06631
2.8 0.07593
2.9 0.08558
3.0 0.09525
3.1 0.10494
3.2 0.11465
3.3 0.12438
3.4 0.13413
3.5 0.14389
3.6 0.15366
3.7 0.16344
3.8 0.17324
3.9 0.18304
4.0 0.19286
4.1 0.20269
4.2 0.21252
4.3 0.22236
4.4 0.23221
4.5 0.24206
4.6 0.25193
4.7 0.26179
4.8 0.27167
4.9 0.28154
5.0 0.29143
